# fault_id: ID number of the parent fault of this section
# sec_id: ID number of this section
# num_points: Number of trace points comprising this section
# section_name: Name of the section
97 97 82 East_Neh
# latitude longitude altitude depth slip-rate aseismic rake dip lame_mu lame_lambda
32.266 60.255 0 15000 0.2126 0 180 90 3e+010 3.2e+010
32.248 60.259 0 15000 0.2126 0 180 90 3e+010 3.2e+010
32.23 60.263 0 15000 0.2126 0 180 90 3e+010 3.2e+010
32.213 60.267 0 15000 0.2126 0 180 90 3e+010 3.2e+010
32.195 60.271 0 15000 0.2126 0 180 90 3e+010 3.2e+010
32.177 60.275 0 15000 0.2126 0 180 90 3e+010 3.2e+010
32.159 60.279 0 15000 0.2126 0 180 90 3e+010 3.2e+010
32.142 60.284 0 15000 0.2126 0 180 90 3e+010 3.2e+010
32.124 60.289 0 15000 0.2126 0 180 90 3e+010 3.2e+010
32.107 60.294 0 15000 0.2126 0 180 90 3e+010 3.2e+010
32.089 60.299 0 15000 0.2126 0 180 90 3e+010 3.2e+010
32.063 60.299 0 15000 0.2126 0 180 90 3e+010 3.2e+010
32.045 60.299 0 15000 0.2126 0 180 90 3e+010 3.2e+010
32.027 60.298 0 15000 0.2126 0 180 90 3e+010 3.2e+010
32.009 60.297 0 15000 0.2126 0 180 90 3e+010 3.2e+010
31.991 60.297 0 15000 0.2126 0 180 90 3e+010 3.2e+010
31.973 60.294 0 15000 0.2126 0 180 90 3e+010 3.2e+010
31.956 60.29 0 15000 0.2126 0 180 90 3e+010 3.2e+010
31.938 60.285 0 15000 0.2126 0 180 90 3e+010 3.2e+010
31.92 60.281 0 15000 0.2126 0 180 90 3e+010 3.2e+010
31.902 60.277 0 15000 0.2126 0 180 90 3e+010 3.2e+010
31.885 60.272 0 15000 0.2126 0 180 90 3e+010 3.2e+010
31.867 60.268 0 15000 0.2126 0 180 90 3e+010 3.2e+010
31.85 60.262 0 15000 0.2126 0 180 90 3e+010 3.2e+010
31.832 60.257 0 15000 0.2126 0 180 90 3e+010 3.2e+010
31.815 60.251 0 15000 0.2126 0 180 90 3e+010 3.2e+010
31.797 60.245 0 15000 0.2126 0 180 90 3e+010 3.2e+010
31.78 60.239 0 15000 0.2126 0 180 90 3e+010 3.2e+010
31.763 60.234 0 15000 0.2126 0 180 90 3e+010 3.2e+010
31.745 60.228 0 15000 0.2126 0 180 90 3e+010 3.2e+010
31.728 60.222 0 15000 0.2126 0 180 90 3e+010 3.2e+010
31.71 60.216 0 15000 0.2126 0 180 90 3e+010 3.2e+010
31.693 60.212 0 15000 0.2126 0 180 90 3e+010 3.2e+010
31.675 60.208 0 15000 0.2126 0 180 90 3e+010 3.2e+010
31.657 60.205 0 15000 0.2126 0 180 90 3e+010 3.2e+010
31.639 60.201 0 15000 0.2126 0 180 90 3e+010 3.2e+010
31.621 60.197 0 15000 0.2126 0 180 90 3e+010 3.2e+010
31.603 60.194 0 15000 0.2126 0 180 90 3e+010 3.2e+010
31.586 60.19 0 15000 0.2126 0 180 90 3e+010 3.2e+010
31.568 60.187 0 15000 0.2126 0 180 90 3e+010 3.2e+010
31.55 60.183 0 15000 0.2126 0 180 90 3e+010 3.2e+010
31.532 60.179 0 15000 0.2126 0 180 90 3e+010 3.2e+010
31.514 60.176 0 15000 0.2126 0 180 90 3e+010 3.2e+010
31.497 60.172 0 15000 0.2126 0 180 90 3e+010 3.2e+010
31.479 60.168 0 15000 0.2126 0 180 90 3e+010 3.2e+010
31.461 60.165 0 15000 0.2126 0 180 90 3e+010 3.2e+010
31.443 60.162 0 15000 0.2126 0 180 90 3e+010 3.2e+010
31.425 60.159 0 15000 0.2126 0 180 90 3e+010 3.2e+010
31.407 60.156 0 15000 0.2126 0 180 90 3e+010 3.2e+010
31.389 60.153 0 15000 0.2126 0 180 90 3e+010 3.2e+010
31.371 60.15 0 15000 0.2126 0 180 90 3e+010 3.2e+010
31.353 60.147 0 15000 0.2126 0 180 90 3e+010 3.2e+010
31.336 60.144 0 15000 0.2126 0 180 90 3e+010 3.2e+010
31.318 60.141 0 15000 0.2126 0 180 90 3e+010 3.2e+010
31.3 60.138 0 15000 0.2126 0 180 90 3e+010 3.2e+010
31.282 60.135 0 15000 0.2126 0 180 90 3e+010 3.2e+010
31.264 60.133 0 15000 0.2126 0 180 90 3e+010 3.2e+010
31.246 60.132 0 15000 0.2126 0 180 90 3e+010 3.2e+010
31.228 60.13 0 15000 0.2126 0 180 90 3e+010 3.2e+010
31.21 60.129 0 15000 0.2126 0 180 90 3e+010 3.2e+010
31.192 60.128 0 15000 0.2126 0 180 90 3e+010 3.2e+010
31.174 60.127 0 15000 0.2126 0 180 90 3e+010 3.2e+010
31.156 60.125 0 15000 0.2126 0 180 90 3e+010 3.2e+010
31.138 60.12 0 15000 0.2126 0 180 90 3e+010 3.2e+010
31.121 60.114 0 15000 0.2126 0 180 90 3e+010 3.2e+010
31.103 60.108 0 15000 0.2126 0 180 90 3e+010 3.2e+010
31.086 60.103 0 15000 0.2126 0 180 90 3e+010 3.2e+010
31.068 60.097 0 15000 0.2126 0 180 90 3e+010 3.2e+010
31.051 60.092 0 15000 0.2126 0 180 90 3e+010 3.2e+010
31.034 60.086 0 15000 0.2126 0 180 90 3e+010 3.2e+010
31.016 60.08 0 15000 0.2126 0 180 90 3e+010 3.2e+010
30.999 60.074 0 15000 0.2126 0 180 90 3e+010 3.2e+010
30.982 60.068 0 15000 0.2126 0 180 90 3e+010 3.2e+010
30.964 60.062 0 15000 0.2126 0 180 90 3e+010 3.2e+010
30.947 60.056 0 15000 0.2126 0 180 90 3e+010 3.2e+010
30.93 60.05 0 15000 0.2126 0 180 90 3e+010 3.2e+010
30.912 60.044 0 15000 0.2126 0 180 90 3e+010 3.2e+010
30.895 60.038 0 15000 0.2126 0 180 90 3e+010 3.2e+010
30.878 60.032 0 15000 0.2126 0 180 90 3e+010 3.2e+010
30.86 60.026 0 15000 0.2126 0 180 90 3e+010 3.2e+010
30.843 60.021 0 15000 0.2126 0 180 90 3e+010 3.2e+010
30.825 60.018 0 15000 0.2126 0 180 90 3e+010 3.2e+010
